XCOM: vinyltoluene

Constituents (Atomic Number : Fraction by Weight)
 Z=1	: 0.085290
 Z=6	: 0.914710
       PHOTON      SCATTERING      PHOTO-    PAIR PRODUCTION  TOTAL ATTENUATION
       ENERGY   COHERENT INCOHER. ELECTRIC    IN       IN       WITH   WITHOUT
                                 ABSORPTION NUCLEAR ELECTRON  COHERENT COHERENT
                                             FIELD    FIELD    SCATT.   SCATT.
         (MeV)    (cm2/g)   (cm2/g)   (cm2/g)   (cm2/g)   (cm2/g)   (cm2/g)   (cm2/g)

       1.000E-03 1.017E+00 1.585E-02 2.022E+03 0.000E+00 0.000E+00 2.023E+03 2.022E+03
       1.500E-03 9.023E-01 3.134E-02 6.399E+02 0.000E+00 0.000E+00 6.409E+02 6.400E+02
       2.000E-03 7.820E-01 4.795E-02 2.760E+02 0.000E+00 0.000E+00 2.768E+02 2.761E+02
       3.000E-03 5.745E-01 7.809E-02 8.202E+01 0.000E+00 0.000E+00 8.267E+01 8.209E+01
       4.000E-03 4.306E-01 1.011E-01 3.407E+01 0.000E+00 0.000E+00 3.460E+01 3.417E+01
       5.000E-03 3.357E-01 1.174E-01 1.707E+01 0.000E+00 0.000E+00 1.752E+01 1.719E+01
       6.000E-03 2.720E-01 1.290E-01 9.646E+00 0.000E+00 0.000E+00 1.005E+01 9.775E+00
       8.000E-03 1.949E-01 1.443E-01 3.880E+00 0.000E+00 0.000E+00 4.219E+00 4.024E+00
       1.000E-02 1.503E-01 1.542E-01 1.899E+00 0.000E+00 0.000E+00 2.203E+00 2.053E+00
       1.500E-02 9.051E-02 1.692E-01 5.110E-01 0.000E+00 0.000E+00 7.707E-01 6.802E-01
       2.000E-02 5.982E-02 1.769E-01 1.991E-01 0.000E+00 0.000E+00 4.358E-01 3.760E-01
       3.000E-02 3.104E-02 1.815E-01 5.220E-02 0.000E+00 0.000E+00 2.648E-01 2.337E-01
       4.000E-02 1.885E-02 1.805E-01 2.006E-02 0.000E+00 0.000E+00 2.194E-01 2.006E-01
       5.000E-02 1.263E-02 1.776E-01 9.536E-03 0.000E+00 0.000E+00 1.997E-01 1.871E-01
       6.000E-02 9.036E-03 1.740E-01 5.187E-03 0.000E+00 0.000E+00 1.882E-01 1.791E-01
       8.000E-02 5.260E-03 1.664E-01 1.985E-03 0.000E+00 0.000E+00 1.736E-01 1.684E-01
       1.000E-01 3.426E-03 1.592E-01 9.435E-04 0.000E+00 0.000E+00 1.636E-01 1.601E-01
       1.500E-01 1.551E-03 1.440E-01 2.475E-04 0.000E+00 0.000E+00 1.458E-01 1.442E-01
       2.000E-01 8.786E-04 1.322E-01 9.728E-05 0.000E+00 0.000E+00 1.332E-01 1.323E-01
       3.000E-01 3.926E-04 1.151E-01 2.726E-05 0.000E+00 0.000E+00 1.156E-01 1.152E-01
       4.000E-01 2.212E-04 1.032E-01 1.163E-05 0.000E+00 0.000E+00 1.035E-01 1.032E-01
       5.000E-01 1.417E-04 9.431E-02 6.256E-06 0.000E+00 0.000E+00 9.446E-02 9.432E-02
       6.000E-01 9.848E-05 8.725E-02 3.890E-06 0.000E+00 0.000E+00 8.735E-02 8.725E-02
       8.000E-01 5.540E-05 7.665E-02 1.962E-06 0.000E+00 0.000E+00 7.670E-02 7.665E-02
       1.000E+00 3.547E-05 6.893E-02 1.220E-06 0.000E+00 0.000E+00 6.896E-02 6.893E-02
       1.022E+00 3.396E-05 6.822E-02 1.125E-06 0.000E+00 0.000E+00 6.825E-02 6.822E-02
       1.250E+00 2.270E-05 6.164E-02 7.637E-07 1.356E-05 0.000E+00 6.168E-02 6.165E-02
       1.500E+00 1.577E-05 5.604E-02 5.545E-07 7.534E-05 0.000E+00 5.613E-02 5.611E-02
       2.000E+00 8.869E-06 4.781E-02 3.500E-07 3.005E-04 0.000E+00 4.812E-02 4.811E-02
       2.044E+00 8.490E-06 4.722E-02 3.387E-07 3.239E-04 0.000E+00 4.755E-02 4.754E-02
       3.000E+00 3.942E-06 3.761E-02 1.964E-07 8.604E-04 1.316E-05 3.849E-02 3.849E-02
       4.000E+00 2.217E-06 3.137E-02 1.352E-07 1.397E-03 5.373E-05 3.283E-02 3.282E-02
       5.000E+00 1.419E-06 2.710E-02 1.027E-07 1.875E-03 1.071E-04 2.908E-02 2.908E-02
       6.000E+00 9.857E-07 2.395E-02 8.265E-08 2.305E-03 1.644E-04 2.642E-02 2.642E-02
       7.000E+00 7.239E-07 2.152E-02 6.912E-08 2.689E-03 2.217E-04 2.444E-02 2.444E-02
       8.000E+00 5.545E-07 1.959E-02 5.935E-08 3.034E-03 2.773E-04 2.290E-02 2.290E-02
       9.000E+00 4.381E-07 1.801E-02 5.201E-08 3.348E-03 3.307E-04 2.169E-02 2.169E-02
       1.000E+01 3.548E-07 1.668E-02 4.628E-08 3.634E-03 3.815E-04 2.070E-02 2.070E-02
       1.100E+01 2.933E-07 1.556E-02 4.165E-08 3.894E-03 4.297E-04 1.989E-02 1.989E-02
       1.200E+01 2.464E-07 1.459E-02 3.788E-08 4.132E-03 4.754E-04 1.920E-02 1.920E-02
       1.300E+01 2.100E-07 1.375E-02 3.473E-08 4.354E-03 5.185E-04 1.862E-02 1.862E-02
       1.400E+01 1.810E-07 1.301E-02 3.206E-08 4.560E-03 5.598E-04 1.813E-02 1.813E-02
       1.500E+01 1.577E-07 1.235E-02 2.977E-08 4.752E-03 5.990E-04 1.770E-02 1.770E-02
       1.600E+01 1.386E-07 1.176E-02 2.779E-08 4.936E-03 6.360E-04 1.733E-02 1.733E-02
       1.800E+01 1.095E-07 1.075E-02 2.452E-08 5.268E-03 7.056E-04 1.672E-02 1.672E-02
       2.000E+01 8.869E-08 9.909E-03 2.193E-08 5.566E-03 7.692E-04 1.624E-02 1.624E-02
       2.200E+01 7.332E-08 9.208E-03 1.984E-08 5.840E-03 8.279E-04 1.588E-02 1.588E-02
       2.400E+01 6.159E-08 8.604E-03 1.811E-08 6.086E-03 8.822E-04 1.557E-02 1.557E-02
       2.600E+01 5.249E-08 8.077E-03 1.666E-08 6.314E-03 9.324E-04 1.532E-02 1.532E-02
       2.800E+01 4.526E-08 7.620E-03 1.542E-08 6.522E-03 9.797E-04 1.512E-02 1.512E-02
       3.000E+01 3.942E-08 7.213E-03 1.436E-08 6.716E-03 1.024E-03 1.495E-02 1.495E-02
       4.000E+01 2.217E-08 5.734E-03 1.067E-08 7.513E-03 1.209E-03 1.446E-02 1.446E-02
       5.000E+01 1.419E-08 4.786E-03 8.490E-09 8.111E-03 1.355E-03 1.425E-02 1.425E-02
       6.000E+01 9.857E-09 4.123E-03 7.050E-09 8.590E-03 1.473E-03 1.419E-02 1.419E-02
       8.000E+01 5.545E-09 3.252E-03 5.265E-09 9.313E-03 1.656E-03 1.422E-02 1.422E-02
       1.000E+02 3.548E-09 2.699E-03 4.200E-09 9.846E-03 1.796E-03 1.434E-02 1.434E-02
       1.500E+02 1.577E-09 1.922E-03 2.789E-09 1.074E-02 2.039E-03 1.470E-02 1.470E-02
       2.000E+02 8.869E-10 1.507E-03 2.088E-09 1.130E-02 2.201E-03 1.501E-02 1.501E-02
       3.000E+02 3.941E-10 1.068E-03 1.390E-09 1.199E-02 2.411E-03 1.547E-02 1.547E-02
       4.000E+02 2.217E-10 8.365E-04 1.041E-09 1.240E-02 2.542E-03 1.577E-02 1.577E-02
       5.000E+02 1.419E-10 6.925E-04 8.325E-10 1.267E-02 2.635E-03 1.600E-02 1.600E-02
       6.000E+02 9.852E-11 5.930E-04 6.935E-10 1.287E-02 2.704E-03 1.617E-02 1.617E-02
       8.000E+02 5.545E-11 4.631E-04 5.197E-10 1.314E-02 2.802E-03 1.640E-02 1.640E-02
       1.000E+03 3.548E-11 3.810E-04 4.158E-10 1.331E-02 2.867E-03 1.656E-02 1.656E-02
       1.500E+03 1.577E-11 2.661E-04 2.771E-10 1.357E-02 2.968E-03 1.681E-02 1.681E-02
       2.000E+03 8.869E-12 2.059E-04 2.078E-10 1.372E-02 3.025E-03 1.695E-02 1.695E-02
       3.000E+03 3.941E-12 1.432E-04 1.385E-10 1.387E-02 3.088E-03 1.710E-02 1.710E-02
       4.000E+03 2.217E-12 1.105E-04 1.038E-10 1.396E-02 3.125E-03 1.719E-02 1.719E-02
       5.000E+03 1.419E-12 9.039E-05 8.306E-11 1.401E-02 3.148E-03 1.725E-02 1.725E-02
       6.000E+03 9.852E-13 7.664E-05 6.921E-11 1.405E-02 3.165E-03 1.729E-02 1.729E-02
       8.000E+03 5.545E-13 5.903E-05 5.192E-11 1.410E-02 3.186E-03 1.734E-02 1.734E-02
       1.000E+04 3.548E-13 4.820E-05 4.154E-11 1.413E-02 3.201E-03 1.738E-02 1.738E-02
       1.500E+04 1.577E-13 3.331E-05 2.769E-11 1.417E-02 3.219E-03 1.742E-02 1.742E-02
       2.000E+04 8.869E-14 2.561E-05 2.077E-11 1.419E-02 3.230E-03 1.745E-02 1.745E-02
       3.000E+04 3.941E-14 1.766E-05 1.384E-11 1.422E-02 3.241E-03 1.748E-02 1.748E-02
       4.000E+04 2.217E-14 1.356E-05 1.038E-11 1.423E-02 3.248E-03 1.749E-02 1.749E-02
       5.000E+04 1.419E-14 1.104E-05 8.306E-12 1.424E-02 3.251E-03 1.750E-02 1.750E-02
       6.000E+04 9.852E-15 9.333E-06 6.921E-12 1.425E-02 3.254E-03 1.751E-02 1.751E-02
       8.000E+04 5.545E-15 7.159E-06 5.192E-12 1.425E-02 3.257E-03 1.752E-02 1.752E-02
       1.000E+05 3.548E-15 5.821E-06 4.153E-12 1.426E-02 3.259E-03 1.752E-02 1.752E-02
